 PENELOPE (v. 2008)  Material data file ...............
 Material: LUNG (ICRP)  (191)                                            
 Mass density = 3.00000000E-01 g/cm**3
 Number of elements in the molecule = 13
   atomic number =  1,  atoms/molecule = 6.33146000E-01
   atomic number =  6,  atoms/molecule = 5.36716000E-02
   atomic number =  7,  atoms/molecule = 1.28883000E-02
   atomic number =  8,  atoms/molecule = 2.98153000E-01
   atomic number = 11,  atoms/molecule = 5.04301000E-04
   atomic number = 12,  atoms/molecule = 1.89249000E-04
   atomic number = 15,  atoms/molecule = 1.62743000E-04
   atomic number = 16,  atoms/molecule = 4.42206000E-04
   atomic number = 17,  atoms/molecule = 4.72753000E-04
   atomic number = 19,  atoms/molecule = 3.12644000E-04
   atomic number = 20,  atoms/molecule = 1.41488000E-05
   atomic number = 26,  atoms/molecule = 4.17454000E-05
   atomic number = 30,  atoms/molecule = 9.63743000E-07
 Mean excitation energy = 7.53000000E+01 eV
 Number of oscillators = 45 (E/P inelastic model)
   1  8.45242600E-04  4.87643864E+00  1.08487923E+01   0   5
   2  2.11426201E+00  1.37500168E+01  3.08489529E+01   0   2
   3  6.00041987E-01  2.85166460E+01  6.38189092E+01   0   2
   4  4.06795600E-04  5.34435023E+01  1.19293725E+02   0   3
   5  7.56996000E-04  5.40000000E+01  1.20631794E+02  12   4
   6  1.66981600E-04  5.90000000E+01  1.31801331E+02  26   7
   7  8.34908000E-05  6.10000000E+01  1.36269163E+02  26   6
   8  1.00860200E-03  6.60000000E+01  1.47438848E+02  11   2
   9  3.85497200E-06  9.10000000E+01  2.03286772E+02  30   7
  10  3.78498000E-04  9.20000000E+01  2.05520717E+02  12   2
  11  1.92748600E-06  9.40000000E+01  2.09988534E+02  30   6
  12  8.34908000E-05  9.80000000E+01  2.18924221E+02  26   5
  13  6.50972000E-04  1.34000000E+02  2.99345386E+02  15   4
  14  3.25486000E-04  1.35000000E+02  3.01579292E+02  15   3
  15  1.92748600E-06  1.41000000E+02  3.14982801E+02  30   5
  16  1.76882400E-03  1.68000000E+02  3.75298719E+02  16   4
  17  8.84412000E-04  1.70000000E+02  3.79766528E+02  16   3
  18  3.25486000E-04  1.91000000E+02  4.26678840E+02  15   2
  19  1.89101200E-03  2.06000000E+02  4.60187692E+02  17   4
  20  9.45506000E-04  2.08000000E+02  4.64655506E+02  17   3
  21  8.84412000E-04  2.32000000E+02  5.18269596E+02  16   2
  22  9.45506000E-04  2.77000000E+02  6.18796019E+02  17   2
  23  1.08593776E-01  2.88092129E+02  6.43574333E+02   0   4
  24  6.25288000E-04  2.99000000E+02  6.67942264E+02  19   3
  25  5.65952000E-05  3.49000000E+02  7.79638281E+02  20   4
  26  2.82976000E-05  3.53000000E+02  7.88573963E+02  20   3
  27  6.25288000E-04  3.81000000E+02  8.51123748E+02  19   2
  28  2.57766000E-02  4.03000000E+02  9.00270369E+02   7   1
  29  2.82976000E-05  4.41000000E+02  9.85158973E+02  20   2
  30  5.96306000E-01  5.38000000E+02  1.20185581E+03   8   1
  31  1.66981600E-04  7.13000000E+02  1.59278537E+03  26   4
  32  8.34908000E-05  7.26000000E+02  1.62182634E+03  26   3
  33  8.34908000E-05  8.51000000E+02  1.90106641E+03  26   2
  34  3.85497200E-06  1.02400000E+03  2.28753467E+03  30   4
  35  1.92748600E-06  1.04700000E+03  2.33891484E+03  30   3
  36  1.00860200E-03  1.07500000E+03  2.40146462E+03  11   1
  37  1.92748600E-06  1.19800000E+03  2.67623685E+03  30   2
  38  3.78498000E-04  1.30800000E+03  2.92196811E+03  12   1
  39  3.25486000E-04  2.14800000E+03  4.79846139E+03  15   1
  40  8.84412000E-04  2.47600000E+03  5.53118734E+03  16   1
  41  9.45506000E-04  2.82900000E+03  6.31976131E+03  17   1
  42  6.25288000E-04  3.61000000E+03  8.06445327E+03  19   1
  43  2.82976000E-05  4.04100000E+03  9.02727304E+03  20   1
  44  8.34908000E-05  7.11700000E+03  1.58988127E+04  26   1
  45  1.92748600E-06  9.66300000E+03  2.15863745E+04  30   1
 Number of shells = 13 (Compton IA model)
   1  8.16945000E-04  4.83360623E+00  2.21925259E+00   0  30
   2  2.71370701E+00  1.70097067E+01  5.44762817E-01   0  30
   3  1.21394687E-02  1.56944916E+02  2.02437724E-01   0  30
   4  7.33388490E-01  4.96727132E+02  1.19412466E-01   0  30
   5  1.92748600E-06  1.19800000E+03  1.08000000E-01  30   2
   6  3.78498000E-04  1.30800000E+03  7.45000000E-02  12   1
   7  3.25486000E-04  2.14800000E+03  5.92000000E-02  15   1
   8  8.84412000E-04  2.47600000E+03  5.53000000E-02  16   1
   9  9.45506000E-04  2.82900000E+03  5.20000000E-02  17   1
  10  6.25288000E-04  3.61000000E+03  4.64000000E-02  19   1
  11  2.82976000E-05  4.04100000E+03  4.40000000E-02  20   1
  12  8.34908000E-05  7.11700000E+03  3.36000000E-02  26   1
  13  1.92748600E-06  9.66300000E+03  2.90000000E-02  30   1
 *** RELAX:  Z =  1,  no. of shells =  1,  no. of transitions =   0
   1 1s1/2 1  1.36000000E+01
 *** RELAX:  Z =  6,  no. of shells =  3,  no. of transitions =   8
   1 1s1/2 2  2.88000000E+02
   2 2s1/2 2  1.65900000E+01
   3 2p1/2 2  1.12600000E+01
   1  3  0  5.61488000E-04  2.82020000E+02
   1  4  0  1.12060000E-03  2.82030000E+02
   1  2  2  4.13609000E-01  2.55890000E+02
   1  2  3  1.36190000E-01  2.64460000E+02
   1  2  4  2.71099000E-01  2.64470000E+02
   1  3  3  4.20748000E-03  2.73030000E+02
   1  3  4  1.10012000E-01  2.73040000E+02
   1  4  4  6.32008000E-02  2.73050000E+02
 *** RELAX:  Z =  7,  no. of shells =  4,  no. of transitions =   8
   1 1s1/2 2  4.03000000E+02
   2 2s1/2 2  2.03300000E+01
   3 2p1/2 2  1.45300000E+01
   4 2p3/2 1  1.45300000E+01
   1  3  0  1.09420000E-03  3.93350000E+02
   1  4  0  2.18181000E-03  3.93370000E+02
   1  2  2  2.65388000E-01  3.58650000E+02
   1  2  3  1.29999000E-01  3.70250000E+02
   1  2  4  2.58276000E-01  3.70270000E+02
   1  3  3  8.15943000E-03  3.81850000E+02
   1  3  4  2.12711000E-01  3.81870000E+02
   1  4  4  1.22190000E-01  3.81890000E+02
 *** RELAX:  Z =  8,  no. of shells =  4,  no. of transitions =   8
   1 1s1/2 2  5.38000000E+02
   2 2s1/2 2  2.84800000E+01
   3 2p1/2 2  1.36200000E+01
   4 2p3/2 2  1.36200000E+01
   1  3  0  1.90768000E-03  5.23090000E+02
   1  4  0  3.80027000E-03  5.23130000E+02
   1  2  2  1.78644000E-01  4.78820000E+02
   1  2  3  1.16224000E-01  4.93860000E+02
   1  2  4  2.30418000E-01  4.93900000E+02
   1  3  3  1.10822000E-02  5.08900000E+02
   1  3  4  2.91115000E-01  5.08940000E+02
   1  4  4  1.66809000E-01  5.08980000E+02
 *** RELAX:  Z = 11,  no. of shells =  5,  no. of transitions =  14
   1 1s1/2 2  1.07500000E+03
   2 2s1/2 2  6.60000000E+01
   3 2p1/2 2  3.40000000E+01
   4 2p3/2 4  3.40000000E+01
   5 3s1/2 1  5.13900000E+00
   1  3  0  6.68996000E-03  1.04098000E+03
   1  4  0  1.32959000E-02  1.04098000E+03
   1  2  2  8.70552000E-02  9.35040000E+02
   1  2  3  8.90021000E-02  9.63100000E+02
   1  2  4  1.75052000E-01  9.63300000E+02
   1  2  5  5.73825000E-03  9.94370000E+02
   1  3  3  1.46296000E-02  9.91160000E+02
   1  3  4  3.82369000E-01  9.91360000E+02
   1  3  5  2.69932000E-03  1.02243000E+03
   1  4  4  2.18165000E-01  9.91560000E+02
   1  4  5  5.30407000E-03  1.02263000E+03
   2 30  0  1.16019000E-04  6.44800000E+01
   2  3 30  3.34898000E-01  2.80600000E+01
   2  4 30  6.64986000E-01  2.82600000E+01
 *** RELAX:  Z = 12,  no. of shells =  5,  no. of transitions =  20
   1 1s1/2 2  1.30800000E+03
   2 2s1/2 2  9.20000000E+01
   3 2p1/2 2  5.40000000E+01
   4 2p3/2 4  5.40000000E+01
   5 3s1/2 2  7.64600000E+00
   1  3  0  9.27327000E-03  1.25344000E+03
   1  4  0  1.84189000E-02  1.25369000E+03
   1  2  2  8.23145000E-02  1.11558000E+03
   1  2  3  8.60821000E-02  1.14849000E+03
   1  2  4  1.68838000E-01  1.14880000E+03
   1  2  5  1.26143000E-02  1.19815000E+03
   1  3  3  1.44975000E-02  1.18140000E+03
   1  3  4  3.75508000E-01  1.18171000E+03
   1  3  5  5.99323000E-03  1.23106000E+03
   1  4  4  2.14213000E-01  1.18202000E+03
   1  4  5  1.17657000E-02  1.23137000E+03
   1  5  5  4.81078000E-04  1.28072000E+03
   2 30  0  1.78346000E-04  8.94600000E+01
   2  3 30  3.31220000E-01  3.29100000E+01
   2  4 30  6.56590000E-01  3.32200000E+01
   2  5 30  1.20110000E-02  8.25700000E+01
   3 30  0  3.41139000E-06  5.65500000E+01
   3  5 30  9.99997000E-01  4.96600000E+01
   4 30  0  3.17959000E-06  5.62400000E+01
   4  5 30  9.99997000E-01  4.93500000E+01
 *** RELAX:  Z = 15,  no. of shells =  7,  no. of transitions =  54
   1 1s1/2 2  2.14800000E+03
   2 2s1/2 2  1.91000000E+02
   3 2p1/2 2  1.35000000E+02
   4 2p3/2 4  1.34000000E+02
   5 3s1/2 2  1.61500000E+01
   6 3p1/2 2  1.04900000E+01
   7 3p3/2 1  1.04900000E+01
   1  3  0  2.01220000E-02  2.01270000E+03
   1  4  0  3.98749000E-02  2.01368000E+03
   1  6  0  6.21469000E-04  2.13910000E+03
   1  7  0  1.23210000E-03  2.13910000E+03
   1  2  2  7.12845000E-02  1.75610000E+03
   1  2  3  7.70090000E-02  1.80411000E+03
   1  2  4  1.49534000E-01  1.80507000E+03
   1  2  5  1.42971000E-02  1.92604000E+03
   1  2  6  3.09277000E-03  1.93487000E+03
   1  2  7  6.00170000E-03  1.93492000E+03
   1  3  3  1.35789000E-02  1.85212000E+03
   1  3  4  3.44468000E-01  1.85308000E+03
   1  3  5  6.87552000E-03  1.97405000E+03
   1  3  6  1.05204000E-03  1.98288000E+03
   1  3  7  1.25152000E-02  1.98293000E+03
   1  4  4  1.96055000E-01  1.85404000E+03
   1  4  5  1.33713000E-02  1.97501000E+03
   1  4  6  1.25043000E-02  1.98384000E+03
   1  4  7  1.43892000E-02  1.98389000E+03
   1  5  5  7.12833000E-04  2.09598000E+03
   1  5  6  2.75938000E-04  2.10481000E+03
   1  5  7  5.34626000E-04  2.10486000E+03
   1  6  6  1.72459000E-05  2.11364000E+03
   1  6  7  3.67923000E-04  2.11369000E+03
   1  7  7  2.12700000E-04  2.11374000E+03
   2  6  0  1.42970000E-05  1.89340000E+02
   2  7  0  2.50490000E-05  1.86400000E+02
   2  5  5  9.19772000E-03  1.52730000E+02
   2  5  6  6.89081000E-03  1.61560000E+02
   2  5  7  1.36935000E-02  1.61610000E+02
   2  6  6  8.43928000E-05  1.70390000E+02
   2  6  7  2.67913000E-06  1.70440000E+02
   2  7  7  1.74150000E-04  1.70490000E+02
   3  5  0  1.07310000E-04  1.23000000E+02
   3  7  0  9.51832000E-09  1.27700000E+02
   3  5  5  3.84224000E-02  1.04720000E+02
   3  5  6  4.09857000E-01  1.13550000E+02
   3  5  7  2.66610000E-02  1.13600000E+02
   3  6  6  1.11541000E-01  1.22380000E+02
   3  6  7  4.01870000E-01  1.22430000E+02
   3  7  7  1.15410000E-02  1.22480000E+02
   4  5  0  1.00720000E-04  1.21410000E+02
   4  6  0  4.44840000E-09  1.29070000E+02
   4  7  0  4.38500000E-09  1.26100000E+02
   4  5  5  3.74626000E-02  1.03760000E+02
   4  5  6  1.31656000E-02  1.12590000E+02
   4  5  7  4.23652000E-01  1.12640000E+02
   4  6  6  1.74570000E-03  1.21420000E+02
   4  6  7  2.10574000E-01  1.21470000E+02
   4  7  7  3.13300000E-01  1.21520000E+02
   2 30  0  3.97670000E-04  1.87150000E+02
   2  3 30  3.28130000E-01  4.80100000E+01
   2  4 30  6.41390000E-01  4.89700000E+01
   3 30  0  7.54471000E-14  1.39140000E+02
 *** RELAX:  Z = 16,  no. of shells =  7,  no. of transitions =  54
   1 1s1/2 2  2.47600000E+03
   2 2s1/2 2  2.32000000E+02
   3 2p1/2 2  1.70000000E+02
   4 2p3/2 4  1.68000000E+02
   5 3s1/2 2  2.02000000E+01
   6 3p1/2 2  1.03600000E+01
   7 3p3/2 2  1.03600000E+01
   1  3  0  2.47822000E-02  2.30670000E+03
   1  4  0  4.90644000E-02  2.30789000E+03
   1  6  0  1.15591000E-03  2.46973000E+03
   1  7  0  2.28902000E-03  2.46407000E+03
   1  2  2  6.79961000E-02  2.00396000E+03
   1  2  3  7.39684000E-02  2.05720000E+03
   1  2  4  1.43069000E-01  2.05853000E+03
   1  2  5  1.42819000E-02  2.20898000E+03
   1  2  6  4.23283000E-03  2.21959000E+03
   1  2  7  8.17425000E-03  2.21968000E+03
   1  3  3  1.31472000E-02  2.11044000E+03
   1  3  4  3.31099000E-01  2.11177000E+03
   1  3  5  6.86216000E-03  2.26222000E+03
   1  3  6  1.45266000E-03  2.27283000E+03
   1  3  7  1.70618000E-02  2.27292000E+03
   1  4  4  1.88236000E-01  2.11310000E+03
   1  4  5  1.32869000E-02  2.26355000E+03
   1  4  6  1.70457000E-02  2.27416000E+03
   1  4  7  1.96027000E-02  2.27425000E+03
   1  5  5  7.44545000E-04  2.41400000E+03
   1  5  6  3.95703000E-04  2.42461000E+03
   1  5  7  7.60167000E-04  2.42470000E+03
   1  6  6  3.64445000E-05  2.43522000E+03
   1  6  7  7.96592000E-04  2.43531000E+03
   1  7  7  4.58163000E-04  2.43540000E+03
   2  6  0  3.05768000E-05  2.27170000E+02
   2  7  0  5.14767000E-05  2.24960000E+02
   2  5  5  8.19136000E-03  1.84070000E+02
   2  5  6  8.39006000E-03  1.94680000E+02
   2  5  7  1.66434000E-02  1.94770000E+02
   2  6  6  1.45352000E-04  2.05290000E+02
   2  6  7  1.13569000E-05  2.05380000E+02
   2  7  7  3.03228000E-04  2.05470000E+02
   3  5  0  2.07430000E-04  1.48660000E+02
   3  7  0  3.45370000E-08  1.60520000E+02
   3  5  5  2.44984000E-02  1.30830000E+02
   3  5  6  3.20372000E-01  1.41440000E+02
   3  5  7  2.13995000E-02  1.41530000E+02
   3  6  6  1.35178000E-01  1.52050000E+02
   3  6  7  4.84421000E-01  1.52140000E+02
   3  7  7  1.39230000E-02  1.52230000E+02
   4  5  0  1.95079000E-04  1.48660000E+02
   4  6  0  1.61379000E-08  1.60930000E+02
   4  7  0  1.58869000E-08  1.58730000E+02
   4  5  5  2.39739000E-02  1.29500000E+02
   4  5  6  1.05269000E-02  1.40110000E+02
   4  5  7  3.31167000E-01  1.40200000E+02
   4  6  6  2.17960000E-03  1.50720000E+02
   4  6  7  2.53969000E-01  1.50810000E+02
   4  7  7  3.77988000E-01  1.50900000E+02
   2 30  0  4.49177000E-04  2.25970000E+02
   2  3 30  3.29158000E-01  5.32400000E+01
   2  4 30  6.36625000E-01  5.45700000E+01
   3 30  0  2.48030000E-13  1.72730000E+02
 *** RELAX:  Z = 17,  no. of shells =  7,  no. of transitions =  54
   1 1s1/2 2  2.82900000E+03
   2 2s1/2 2  2.77000000E+02
   3 2p1/2 2  2.08000000E+02
   4 2p3/2 4  2.06000000E+02
   5 3s1/2 2  2.45400000E+01
   6 3p1/2 2  1.29700000E+01
   7 3p3/2 3  1.29700000E+01
   1  3  0  2.99473000E-02  2.62085000E+03
   1  4  0  5.92357000E-02  2.62244000E+03
   1  6  0  1.90852000E-03  2.81560000E+03
   1  7  0  3.77764000E-03  2.81560000E+03
   1  2  2  6.47454000E-02  2.26880000E+03
   1  2  3  7.07430000E-02  2.32737000E+03
   1  2  4  1.36245000E-01  2.32915000E+03
   1  2  5  1.40930000E-02  2.51201000E+03
   1  2  6  5.34453000E-03  2.52443000E+03
   1  2  7  1.02721000E-02  2.52456000E+03
   1  3  3  1.26685000E-02  2.38594000E+03
   1  3  4  3.17212000E-01  2.38772000E+03
   1  3  5  6.76930000E-03  2.57058000E+03
   1  3  6  1.84144000E-03  2.58300000E+03
   1  3  7  2.14432000E-02  2.58313000E+03
   1  4  4  1.80107000E-01  2.38950000E+03
   1  4  5  1.30550000E-02  2.57236000E+03
   1  4  6  2.14401000E-02  2.58478000E+03
   1  4  7  2.46207000E-02  2.58491000E+03
   1  5  5  7.57429000E-04  2.75522000E+03
   1  5  6  5.11276000E-04  2.76764000E+03
   1  5  7  9.89421000E-04  2.76777000E+03
   1  6  6  6.15382000E-05  2.78006000E+03
   1  6  7  1.40118000E-03  2.78019000E+03
   1  7  7  8.09499000E-04  2.78032000E+03
   2  6  0  5.77589000E-05  2.68080000E+02
   2  7  0  9.34599000E-05  2.66620000E+02
   2  5  5  7.21657000E-03  2.18370000E+02
   2  5  6  9.41985000E-03  2.30790000E+02
   2  5  7  1.86655000E-02  2.30920000E+02
   2  6  6  2.03716000E-04  2.43210000E+02
   2  6  7  3.00734000E-05  2.43340000E+02
   2  7  7  4.33629000E-04  2.43470000E+02
   3  5  0  3.58568000E-04  1.84140000E+02
   3  7  0  9.97973000E-08  1.96310000E+02
   3  5  5  1.68707000E-02  1.59800000E+02
   3  5  6  2.61091000E-01  1.72220000E+02
   3  5  7  1.78966000E-02  1.72350000E+02
   3  6  6  1.50680000E-01  1.84640000E+02
   3  6  7  5.37786000E-01  1.84770000E+02
   3  7  7  1.53179000E-02  1.84900000E+02
   4  5  0  3.37841000E-04  1.82600000E+02
   4  6  0  4.66351000E-08  1.95370000E+02
   4  7  0  4.58471000E-08  1.93910000E+02
   4  5  5  1.66045000E-02  1.58020000E+02
   4  5  6  8.74747000E-03  1.70440000E+02
   4  5  7  2.69969000E-01  1.70570000E+02
   4  6  6  2.48799000E-03  1.82860000E+02
   4  6  7  2.81903000E-01  1.82990000E+02
   4  7  7  4.19951000E-01  1.83120000E+02
   2 30  0  4.70939000E-04  2.68050000E+02
   2  3 30  3.29030000E-01  5.85700000E+01
   2  4 30  6.34379000E-01  6.03500000E+01
   3 30  0  7.13665000E-13  2.09480000E+02
 *** RELAX:  Z = 19,  no. of shells =  8,  no. of transitions =  71
   1 1s1/2 2  3.61000000E+03
   2 2s1/2 2  3.81000000E+02
   3 2p1/2 2  2.99000000E+02
   4 2p3/2 4  2.96000000E+02
   5 3s1/2 2  3.70000000E+01
   6 3p1/2 2  1.90000000E+01
   7 3p3/2 4  1.87000000E+01
  10 4s1/2 1  4.34100000E+00
   1  3  0  4.18599000E-02  3.31120000E+03
   1  4  0  8.26518000E-02  3.31395000E+03
   1  6  0  3.99739000E-03  3.58963000E+03
   1  7  0  7.91008000E-03  3.58963000E+03
   1  2  2  5.89630000E-02  2.84098000E+03
   1  2  3  6.48009000E-02  2.91049000E+03
   1  2  4  1.23626000E-01  2.91350000E+03
   1  2  5  1.41070000E-02  3.17164000E+03
   1  2  6  6.89276000E-03  3.18839000E+03
   1  2  7  1.31233000E-02  3.18867000E+03
   1  2 10  6.86507000E-04  3.20792000E+03
   1  3  3  1.16788000E-02  2.98000000E+03
   1  3  4  2.89645000E-01  2.98301000E+03
   1  3  5  6.75386000E-03  3.24115000E+03
   1  3  6  2.38084000E-03  3.25790000E+03
   1  3  7  2.72851000E-02  3.25818000E+03
   1  3 10  3.25392000E-04  3.27743000E+03
   1  4  4  1.63935000E-01  2.98602000E+03
   1  4  5  1.29199000E-02  3.24416000E+03
   1  4  6  2.72613000E-02  3.26091000E+03
   1  4  7  3.12637000E-02  3.26119000E+03
   1  4 10  6.19017000E-04  3.28044000E+03
   1  5  5  8.33295000E-04  3.50230000E+03
   1  5  6  7.22188000E-04  3.51905000E+03
   1  5  7  1.37698000E-03  3.51933000E+03
   1  5 10  8.33295000E-05  3.53858000E+03
   1  6  6  1.19046000E-04  3.53580000E+03
   1  6  7  2.58323000E-03  3.53608000E+03
   1  6 10  3.57137000E-05  3.55533000E+03
   1  7  7  1.49204000E-03  3.53636000E+03
   1  7 10  6.74576000E-05  3.55561000E+03
   2  6  0  1.47230000E-04  3.61810000E+02
   2  7  0  2.25400000E-04  3.61520000E+02
   2  5  5  1.09421000E-02  2.90160000E+02
   2  5  6  1.84072000E-02  3.06910000E+02
   2  5  7  3.64059000E-02  3.07190000E+02
   2  5 10  9.71733000E-04  3.26440000E+02
   2  6  6  4.43715000E-04  3.23660000E+02
   2  6  7  1.62172000E-04  3.23940000E+02
   2  6 10  7.22612000E-04  3.43190000E+02
   2  7  7  1.00934000E-03  3.24220000E+02
   2  7 10  1.42836000E-03  3.43470000E+02
   3  5  0  8.35413000E-04  2.62450000E+02
   3  7  0  4.81412000E-07  2.79520000E+02
   3 10  0  2.03921000E-05  2.99170000E+02
   3  5  5  1.14174000E-02  2.20650000E+02
   3  5  6  2.07641000E-01  2.37400000E+02
   3  5  7  1.48840000E-02  2.37680000E+02
   3  5 10  9.88199000E-04  2.56930000E+02
   3  6  6  1.62162000E-01  2.54150000E+02
   3  6  7  5.74928000E-01  2.54430000E+02
   3  6 10  1.03231000E-02  2.73680000E+02
   3  7  7  1.61615000E-02  2.54710000E+02
   3  7 10  6.38519000E-04  2.73960000E+02
   4  5  0  7.89471000E-04  2.59703000E+02
   4  6  0  2.24120000E-07  2.77180000E+02
   4  7  0  2.20150000E-07  2.76900000E+02
   4 10  0  1.92520000E-05  2.96540000E+02
   4  5  5  1.12219000E-02  2.17640000E+02
   4  5  6  7.18101000E-03  2.34390000E+02
   4  5  7  2.13721000E-01  2.34670000E+02
   4  5 10  9.76484000E-04  2.53920000E+02
   4  6  6  2.71897000E-03  2.51140000E+02
   4  6  7  2.99761000E-01  2.51420000E+02
   4  6 10  3.00446000E-04  2.70670000E+02
   4  7  7  4.52595000E-01  2.51700000E+02
   4  7 10  1.07157000E-02  2.70950000E+02
   2 30  0  4.25260000E-04  3.71160000E+02
   2  3 30  3.22240000E-01  6.95100000E+01
   2  4 30  6.06469000E-01  7.25200000E+01
   3 30  0  4.09442000E-12  3.01650000E+02
 *** RELAX:  Z = 20,  no. of shells =  8,  no. of transitions =  71
   1 1s1/2 2  4.04100000E+03
   2 2s1/2 2  4.41000000E+02
   3 2p1/2 2  3.53000000E+02
   4 2p3/2 4  3.49000000E+02
   5 3s1/2 2  4.60000000E+01
   6 3p1/2 2  2.80000000E+01
   7 3p3/2 4  2.80000000E+01
  10 4s1/2 2  6.11300000E+00
   1  3  0  4.87196000E-02  3.68813000E+03
   1  4  0  9.61323000E-02  3.69172000E+03
   1  6  0  5.17776000E-03  4.01276000E+03
   1  7  0  1.02489000E-02  4.01276000E+03
   1  2  2  5.63485000E-02  3.14678000E+03
   1  2  3  6.20531000E-02  3.22185000E+03
   1  2  4  1.17762000E-01  3.22569000E+03
   1  2  5  1.42824000E-02  3.52773000E+03
   1  2  6  7.23290000E-03  3.54688000E+03
   1  2  7  1.37034000E-02  3.54729000E+03
   1  2 10  1.62556000E-03  3.57544000E+03
   1  3  3  1.12223000E-02  3.29692000E+03
   1  3  4  2.76841000E-01  3.30076000E+03
   1  3  5  6.82757000E-03  3.60280000E+03
   1  3  6  2.49498000E-03  3.62195000E+03
   1  3  7  2.84282000E-02  3.62236000E+03
   1  3 10  7.63476000E-04  3.65051000E+03
   1  4  4  1.56416000E-01  3.30460000E+03
   1  4  5  1.29934000E-02  3.60664000E+03
   1  4  6  2.83839000E-02  3.62579000E+03
   1  4  7  3.25412000E-02  3.62620000E+03
   1  4 10  1.45385000E-03  3.65435000E+03
   1  5  5  8.72175000E-04  3.90868000E+03
   1  5  6  7.79616000E-04  3.92783000E+03
   1  5  7  1.47733000E-03  3.92824000E+03
   1  5 10  1.99359000E-04  3.95639000E+03
   1  6  6  1.35157000E-04  3.94698000E+03
   1  6  7  2.93344000E-03  3.94739000E+03
   1  6 10  8.76773000E-05  3.97554000E+03
   1  7  7  1.69495000E-03  3.94780000E+03
   1  7 10  1.68035000E-04  3.97595000E+03
   2  6  0  2.04061000E-04  4.15430000E+02
   2  7  0  3.06021000E-04  4.15800000E+02
   2  5  5  1.31208000E-02  3.27790000E+02
   2  5  6  2.28754000E-02  3.46940000E+02
   2  5  7  4.52192000E-02  3.47350000E+02
   2  5 10  2.68682000E-03  3.75500000E+02
   2  6  6  5.21721000E-04  3.66090000E+02
   2  6  7  2.67985000E-04  3.66500000E+02
   2  6 10  2.04550000E-03  3.94650000E+02
   2  7  7  1.23299000E-03  3.66910000E+02
   2  7 10  4.04393000E-03  3.95060000E+02
   3  5  0  1.19571000E-03  3.06430000E+02
   3  7  0  8.74676000E-07  3.27120000E+02
   3 10  0  2.53632000E-05  3.55640000E+02
   3  5  5  1.08556000E-02  2.52720000E+02
   3  5  6  1.98917000E-01  2.71870000E+02
   3  5  7  1.45844000E-02  2.72280000E+02
   3  5 10  2.13424000E-03  3.00430000E+02
   3  6  6  1.61409000E-01  2.91020000E+02
   3  6  7  5.70643000E-01  2.91430000E+02
   3  6 10  2.29240000E-02  3.19580000E+02
   3  7  7  1.58751000E-02  2.91840000E+02
   3  7 10  1.43604000E-03  3.19990000E+02
   4  5  0  1.13130000E-03  3.02690000E+02
   4  6  0  4.05972000E-07  3.23340000E+02
   4  7  0  3.98812000E-07  3.23710000E+02
   4 10  0  2.39671000E-05  3.52230000E+02
   4  5  5  1.06175000E-02  2.48880000E+02
   4  5  6  6.94101000E-03  2.68030000E+02
   4  5  7  2.03179000E-01  2.68440000E+02
   4  5 10  2.10301000E-03  2.96590000E+02
   4  6  6  2.69658000E-03  2.87180000E+02
   4  6  7  2.95034000E-01  2.87590000E+02
   4  6 10  6.70949000E-04  3.15740000E+02
   4  7  7  4.53602000E-01  2.88000000E+02
   4  7 10  2.39998000E-02  3.16150000E+02
   2 30  0  3.72745000E-04  4.34110000E+02
   2  3 30  3.11791000E-01  7.50700000E+01
   2  4 30  5.95311000E-01  7.89100000E+01
   3 30  0  8.73376000E-12  3.59040000E+02
 *** RELAX:  Z = 26,  no. of shells = 10,  no. of transitions = 142
   1 1s1/2 2  7.11700000E+03
   2 2s1/2 2  8.51000000E+02
   3 2p1/2 2  7.26000000E+02
   4 2p3/2 4  7.13000000E+02
   5 3s1/2 2  9.80000000E+01
   6 3p1/2 2  6.10000000E+01
   7 3p3/2 4  5.90000000E+01
   8 3d3/2 4  9.00000000E+00
   9 3d5/2 2  9.00000000E+00
  10 4s1/2 2  7.87000000E+00
   1  3  0  1.01391000E-01  6.39103000E+03
   1  4  0  1.98621000E-01  6.40401000E+03
   1  6  0  1.22111000E-02  7.05818000E+03
   1  7  0  2.40042000E-02  7.05818000E+03
   1  8  0  6.00794000E-06  7.10826000E+03
   1  9  0  8.77226000E-06  7.10826000E+03
   1  2  2  4.47039000E-02  5.39748000E+03
   1  2  3  4.96309000E-02  5.50689000E+03
   1  2  4  9.05528000E-02  5.51975000E+03
   1  2  5  1.20010000E-02  6.13943000E+03
   1  2  6  6.37861000E-03  6.17240000E+03
   1  2  7  1.15700000E-02  6.17399000E+03
   1  2  8  1.85335000E-04  6.22753000E+03
   1  2  9  2.57546000E-04  6.22770000E+03
   1  2 10  1.06145000E-03  6.23291000E+03
   1  3  3  8.91045000E-03  5.61630000E+03
   1  3  4  2.13819000E-01  5.62916000E+03
   1  3  5  5.68040000E-03  6.24884000E+03
   1  3  6  2.15909000E-03  6.28181000E+03
   1  3  7  2.36911000E-02  6.28340000E+03
   1  3  8  2.57540000E-04  6.33694000E+03
   1  3  9  9.60385000E-04  6.33711000E+03
   1  3 10  4.93427000E-04  6.34232000E+03
   1  4  4  1.19207000E-01  5.64202000E+03
   1  4  5  1.04085000E-02  6.26170000E+03
   1  4  6  2.36893000E-02  6.29467000E+03
   1  4  7  2.68353000E-02  6.29626000E+03
   1  4  8  1.19389000E-03  6.34980000E+03
   1  4  9  1.17463000E-03  6.34997000E+03
   1  4 10  9.02593000E-04  6.35518000E+03
   1  5  5  8.02277000E-04  6.88138000E+03
   1  5  6  7.39263000E-04  6.91435000E+03
   1  5  7  1.34525000E-03  6.91594000E+03
   1  5  8  1.93914000E-05  6.96948000E+03
   1  5  9  2.66629000E-05  6.96965000E+03
   1  5 10  1.40581000E-04  6.97486000E+03
   1  6  6  1.28144000E-04  6.94732000E+03
   1  6  7  2.71062000E-03  6.94891000E+03
   1  6  8  2.21776000E-05  7.00245000E+03
   1  6  9  8.87081000E-05  7.00262000E+03
   1  6 10  6.40678000E-05  7.00783000E+03
   1  7  7  1.58655000E-03  6.95050000E+03
   1  7  8  1.16223000E-04  7.00404000E+03
   1  7  9  1.11167000E-04  7.00421000E+03
   1  7 10  1.21269000E-04  7.00942000E+03
   1  8  9  3.85858000E-06  7.05775000E+03
   1  8 10  3.85858000E-06  7.06296000E+03
   1  9 10  3.51272000E-06  7.06313000E+03
   2  3  0  2.87212000E-05  1.09410000E+02
   2  4  0  1.12411000E-04  1.22270000E+02
   2  6  0  5.33553000E-04  7.92200000E+02
   2  7  0  7.92105000E-04  7.92200000E+02
   2  8  0  1.62101000E-06  8.44520000E+02
   2  9  0  2.20171000E-06  8.45440000E+02
   2  3 10  6.19976000E-03  1.01880000E+02
   2  4  8  9.68238000E-02  1.09360000E+02
   2  4  9  1.37175000E-01  1.09530000E+02
   2  4 10  1.13749000E-02  1.14740000E+02
   2  5  5  1.42253000E-02  6.40940000E+02
   2  5  6  2.56412000E-02  6.73910000E+02
   2  5  7  5.02067000E-02  6.75500000E+02
   2  5  8  1.57957000E-02  7.29040000E+02
   2  5  9  2.33060000E-02  7.29210000E+02
   2  5 10  2.24577000E-03  7.34420000E+02
   2  6  6  4.09652000E-04  7.06880000E+02
   2  6  7  6.68243000E-04  7.08470000E+02
   2  6  8  2.32428000E-04  7.62010000E+02
   2  6  9  4.40741000E-03  7.62180000E+02
   2  6 10  1.77081000E-03  7.67390000E+02
   2  7  7  1.17810000E-03  7.10060000E+02
   2  7  8  4.46042000E-03  7.63600000E+02
   2  7  9  3.23254000E-03  7.63770000E+02
   2  7 10  3.28901000E-03  7.68980000E+02
   2  8  8  2.58444000E-04  8.17140000E+02
   2  8  9  1.35249000E-02  8.17310000E+02
   2  8 10  1.10876000E-03  8.22520000E+02
   2  9  9  3.53869000E-03  8.17480000E+02
   2  9 10  1.55434000E-03  8.22690000E+02
   3  5  0  4.03768000E-03  6.27800000E+02
   3  7  0  9.18115000E-06  6.70400000E+02
   3  8  0  1.40199000E-03  7.18320000E+02
   3 10  0  8.27386000E-05  7.28410000E+02
   3  5  5  5.72017000E-03  5.31530000E+02
   3  5  6  1.04744000E-01  5.64500000E+02
   3  5  7  8.48542000E-03  5.66090000E+02
   3  5  8  3.52272000E-03  6.19630000E+02
   3  5  9  6.29489000E-03  6.19800000E+02
   3  5 10  8.72234000E-04  6.25010000E+02
   3  6  6  8.91640000E-02  5.97470000E+02
   3  6  7  3.09321000E-01  5.99060000E+02
   3  6  8  6.45901000E-02  6.52600000E+02
   3  6  9  1.25120000E-01  6.52770000E+02
   3  6 10  9.30123000E-03  6.57980000E+02
   3  7  7  8.61400000E-03  6.00650000E+02
   3  7  8  7.55051000E-02  6.54190000E+02
   3  7  9  1.14600000E-02  6.54360000E+02
   3  7 10  6.69397000E-04  6.59570000E+02
   3  8  8  2.94353000E-02  7.07730000E+02
   3  8  9  1.34354000E-01  7.07900000E+02
   3  8 10  3.10265000E-04  7.13110000E+02
   3  9  9  6.45717000E-03  7.08070000E+02
   3  9 10  5.27395000E-04  7.13280000E+02
   4  5  0  3.75953000E-03  6.15300000E+02
   4  6  0  4.56623000E-06  6.50100000E+02
   4  7  0  4.45063000E-06  6.56800000E+02
   4  8  0  1.14991000E-04  7.04800000E+02
   4  9  0  1.28521000E-03  7.04800000E+02
   4 10  0  7.69576000E-05  7.14800000E+02
   4  5  5  5.47610000E-03  5.18670000E+02
   4  5  6  3.75614000E-03  5.51640000E+02
   4  5  7  1.02560000E-01  5.53230000E+02
   4  5  8  4.09120000E-03  6.06770000E+02
   4  5  9  5.60270000E-03  6.06940000E+02
   4  5 10  8.34691000E-04  6.12150000E+02
   4  6  6  1.43545000E-03  5.84610000E+02
   4  6  7  1.55075000E-01  5.86200000E+02
   4  6  8  3.86376000E-03  6.39740000E+02
   4  6  9  3.74865000E-02  6.39910000E+02
   4  6 10  2.90883000E-04  6.45120000E+02
   4  7  7  2.29412000E-01  5.87790000E+02
   4  7  8  9.02988000E-02  6.41330000E+02
   4  7  9  1.34973000E-01  6.41500000E+02
   4  7 10  9.09931000E-03  6.46710000E+02
   4  8  8  5.93307000E-03  6.94870000E+02
   4  8  9  1.20726000E-01  6.95040000E+02
   4  8 10  4.31648000E-04  7.00250000E+02
   4  9  9  8.28033000E-02  6.95210000E+02
   4  9 10  6.04329000E-04  7.00420000E+02
   2  3 30  2.32192000E-01  1.09410000E+02
   2  4 30  3.43710000E-01  1.22270000E+02
   3 30  0  2.04719000E-10  7.33550000E+02
   5 30  0  1.44183000E-05  1.01010000E+02
   5  6 30  2.91172000E-01  3.29700000E+01
   5  7 30  6.13554000E-01  3.45600000E+01
   5  8 30  5.01933000E-02  8.81000000E+01
   5  9 30  4.50672000E-02  8.82700000E+01
   6 30  0  4.26719000E-06  6.80400000E+01
   6  8 30  9.69871000E-01  5.51300000E+01
   6  9 30  3.01250000E-02  5.53000000E+01
   7 30  0  3.64781000E-06  6.64500000E+01
   7  8 30  6.03927000E-01  5.35400000E+01
   7  9 30  3.96068000E-01  5.37100000E+01
 *** RELAX:  Z = 30,  no. of shells = 10,  no. of transitions = 156
   1 1s1/2 2  9.66300000E+03
   2 2s1/2 2  1.19800000E+03
   3 2p1/2 2  1.04700000E+03
   4 2p3/2 4  1.02400000E+03
   5 3s1/2 2  1.41000000E+02
