 PENELOPE (v. 2008)  Material data file ...............
 Material: TISSUE, SOFT (ICRU FOUR-COMPONENT)  (263)                     
 Mass density = 1.00000000E+00 g/cm**3
 Number of elements in the molecule =  4
   atomic number =  1,  atoms/molecule = 5.40761000E+01
   atomic number =  6,  atoms/molecule = 4.97859000E+00
   atomic number =  7,  atoms/molecule = 1.00000000E+00
   atomic number =  8,  atoms/molecule = 2.56517000E+01
 Mean excitation energy = 7.49000000E+01 eV
 Number of oscillators =  5 (E/P inelastic model)
   1  9.95718000E+00  0.00000000E+00  3.91763104E+00   0  30
   2  1.71640080E+02  1.38800867E+01  3.35398683E+01   0   2
   3  5.13034000E+01  2.84800000E+01  6.77716080E+01   8   2
   4  1.19571800E+01  3.07235305E+02  7.20781043E+02   0   1
   5  5.13034000E+01  5.38000000E+02  1.27288830E+03   8   1
 Number of shells =  3 (Compton IA model)
   1  9.95718000E+00  0.00000000E+00  3.39377310E+00   0  30
   2  2.22943480E+02  1.72397956E+01  5.47664503E-01   0  30
   3  6.32605800E+01  4.94382079E+02  1.19833437E-01   0  30
 *** RELAX:  Z =  1,  no. of shells =  1,  no. of transitions =   0
   1 1s1/2 1  1.36000000E+01
 *** RELAX:  Z =  6,  no. of shells =  3,  no. of transitions =   8
   1 1s1/2 2  2.88000000E+02
   2 2s1/2 2  1.65900000E+01
   3 2p1/2 2  1.12600000E+01
   1  3  0  5.61488000E-04  2.82020000E+02
   1  4  0  1.12060000E-03  2.82030000E+02
   1  2  2  4.13609000E-01  2.55890000E+02
   1  2  3  1.36190000E-01  2.64460000E+02
   1  2  4  2.71099000E-01  2.64470000E+02
   1  3  3  4.20748000E-03  2.73030000E+02
   1  3  4  1.10012000E-01  2.73040000E+02
   1  4  4  6.32008000E-02  2.73050000E+02
 *** RELAX:  Z =  7,  no. of shells =  4,  no. of transitions =   8
   1 1s1/2 2  4.03000000E+02
   2 2s1/2 2  2.03300000E+01
   3 2p1/2 2  1.45300000E+01
   4 2p3/2 1  1.45300000E+01
   1  3  0  1.09420000E-03  3.93350000E+02
   1  4  0  2.18181000E-03  3.93370000E+02
   1  2  2  2.65388000E-01  3.58650000E+02
   1  2  3  1.29999000E-01  3.70250000E+02
   1  2  4  2.58276000E-01  3.70270000E+02
   1  3  3  8.15943000E-03  3.81850000E+02
   1  3  4  2.12711000E-01  3.81870000E+02
   1  4  4  1.22190000E-01  3.81890000E+02
 *** RELAX:  Z =  8,  no. of shells =  4,  no. of transitions =   8
   1 1s1/2 2  5.38000000E+02
   2 2s1/2 2  2.84800000E+01
   3 2p1/2 2  1.36200000E+01
   4 2p3/2 2  1.36200000E+01
   1  3  0  1.90768000E-03  5.23090000E+02
   1  4  0  3.80027000E-03  5.23130000E+02
   1  2  2  1.78644000E-01  4.78820000E+02
   1  2  3  1.16224000E-01  4.93860000E+02
   1  2  4  2.30418000E-01  4.93900000E+02
   1  3  3  1.10822000E-02  5.08900000E+02
   1  3  4  2.91115000E-01  5.08940000E+02
   1  4  4  1.66809000E-01  5.08980000E+02
 *** Electron scaled bremss x-section,  ZEQ = 4.73803E+00,  NDATA =  57
 1.00E+03 4.20642E+02 4.24407E+02 4.27907E+02 4.30940E+02 4.33560E+02
          4.37841E+02 4.40830E+02 4.42660E+02 4.43432E+02 4.43328E+02
          4.42596E+02 4.41322E+02 4.39598E+02 4.37485E+02 4.35033E+02
          4.32312E+02 4.29406E+02 4.26530E+02 4.23924E+02 4.21748E+02
          4.20106E+02 4.19430E+02 4.18737E+02 4.18115E+02 4.17318E+02
          4.17093E+02 4.16916E+02 4.16893E+02 4.16878E+02 4.16877E+02
          4.16877E+02 4.16862E+02                                     3.739E+02
 1.50E+03 4.79804E+02 4.83947E+02 4.87708E+02 4.90795E+02 4.93287E+02
          4.96891E+02 4.98628E+02 4.98688E+02 4.97270E+02 4.94716E+02
          4.91472E+02 4.87640E+02 4.83272E+02 4.78474E+02 4.73474E+02
          4.68479E+02 4.63482E+02 4.58425E+02 4.53308E+02 4.48340E+02
          4.43780E+02 4.41670E+02 4.39622E+02 4.38119E+02 4.36959E+02
          4.36670E+02 4.36434E+02 4.36408E+02 4.36382E+02 4.36376E+02
          4.36372E+02 4.36415E+02                                     4.111E+02
 2.00E+03 5.21852E+02 5.26635E+02 5.30769E+02 5.33762E+02 5.35765E+02
          5.37643E+02 5.37071E+02 5.34816E+02 5.31204E+02 5.26595E+02
          5.21429E+02 5.15737E+02 5.09439E+02 5.02618E+02 4.95650E+02
          4.88871E+02 4.82260E+02 4.75681E+02 4.69076E+02 4.62727E+02
          4.56740E+02 4.53779E+02 4.51034E+02 4.49161E+02 4.47556E+02
          4.47162E+02 4.46868E+02 4.46833E+02 4.46802E+02 4.46793E+02
          4.46787E+02 4.46825E+02                                     4.344E+02
 3.00E+03 5.81501E+02 5.86328E+02 5.90199E+02 5.92396E+02 5.93166E+02
          5.91786E+02 5.87279E+02 5.80982E+02 5.73351E+02 5.64805E+02
          5.55839E+02 5.46585E+02 5.37101E+02 5.27543E+02 5.18071E+02
          5.08873E+02 4.99977E+02 4.91363E+02 4.83020E+02 4.74969E+02
          4.67348E+02 4.63816E+02 4.60507E+02 4.58105E+02 4.55830E+02
          4.55294E+02 4.54877E+02 4.54824E+02 4.54782E+02 4.54775E+02
          4.54770E+02 4.54782E+02                                     4.617E+02
 4.00E+03 6.23738E+02 6.28220E+02 6.31499E+02 6.32683E+02 6.32101E+02
          6.27456E+02 6.19257E+02 6.09294E+02 5.98143E+02 5.86270E+02
          5.74219E+02 5.62173E+02 5.50258E+02 5.38646E+02 5.27328E+02
          5.16375E+02 5.05851E+02 4.95819E+02 4.86308E+02 4.77192E+02
          4.68664E+02 4.64878E+02 4.61312E+02 4.58620E+02 4.55906E+02
          4.55271E+02 4.54770E+02 4.54703E+02 4.54655E+02 4.54647E+02
          4.54642E+02 4.54641E+02                                     4.768E+02
 5.00E+03 6.57586E+02 6.59870E+02 6.61194E+02 6.60845E+02 6.59102E+02
          6.52777E+02 6.42881E+02 6.30254E+02 6.15669E+02 6.00166E+02
          5.84923E+02 5.70231E+02 5.56154E+02 5.42813E+02 5.30173E+02
          5.18238E+02 5.06914E+02 4.95916E+02 4.85084E+02 4.74839E+02
          4.65832E+02 4.61909E+02 4.58143E+02 4.55209E+02 4.52241E+02
          4.51530E+02 4.50971E+02 4.50902E+02 4.50844E+02 4.50839E+02
          4.50834E+02 4.50825E+02                                     4.858E+02
 6.00E+03 6.84277E+02 6.85667E+02 6.85998E+02 6.84486E+02 6.81464E+02
          6.72442E+02 6.59717E+02 6.44255E+02 6.26934E+02 6.08895E+02
          5.91415E+02 5.74787E+02 5.59062E+02 5.44313E+02 5.30447E+02
          5.17400E+02 5.05067E+02 4.93137E+02 4.81446E+02 4.70467E+02
          4.60918E+02 4.56804E+02 4.52856E+02 4.49767E+02 4.46620E+02
          4.45865E+02 4.45271E+02 4.45197E+02 4.45135E+02 4.45129E+02
          4.45124E+02 4.45113E+02                                     4.915E+02
 8.00E+03 7.24320E+02 7.26297E+02 7.26414E+02 7.23310E+02 7.17616E+02
          7.01679E+02 6.81620E+02 6.60438E+02 6.39013E+02 6.17927E+02
          5.97804E+02 5.78719E+02 5.60627E+02 5.43505E+02 5.27289E+02
          5.11927E+02 4.97454E+02 4.83856E+02 4.71118E+02 4.59208E+02
          4.48482E+02 4.43850E+02 4.39518E+02 4.36244E+02 4.32894E+02
          4.32104E+02 4.31480E+02 4.31395E+02 4.31335E+02 4.31329E+02
          4.31323E+02 4.31313E+02                                     4.975E+02
 1.00E+04 7.56271E+02 7.56835E+02 7.55321E+02 7.50217E+02 7.42284E+02
          7.21694E+02 6.97035E+02 6.71698E+02 6.46628E+02 6.22424E+02
          5.99699E+02 5.78383E+02 5.58275E+02 5.39221E+02 5.21290E+02
          5.04450E+02 4.88682E+02 4.73837E+02 4.59833E+02 4.46815E+02
          4.35164E+02 4.30029E+02 4.25266E+02 4.21777E+02 4.18362E+02
          4.17560E+02 4.16927E+02 4.16843E+02 4.16784E+02 4.16775E+02
          4.16770E+02 4.16763E+02                                     4.999E+02
 1.50E+04 8.15933E+02 8.11503E+02 8.04889E+02 7.94536E+02 7.81400E+02
          7.51203E+02 7.18038E+02 6.85407E+02 6.54149E+02 6.24707E+02
          5.97529E+02 5.72221E+02 5.48464E+02 5.25845E+02 5.04713E+02
          4.85045E+02 4.66727E+02 4.49414E+02 4.32924E+02 4.17656E+02
          4.03921E+02 3.97610E+02 3.91880E+02 3.87925E+02 3.84144E+02
          3.83190E+02 3.82669E+02 3.82632E+02 3.82561E+02 3.82541E+02
          3.82559E+02 3.82545E+02                                     4.997E+02
 2.00E+04 8.72491E+02 8.55098E+02 8.37048E+02 8.17958E+02 7.98513E+02
          7.60849E+02 7.24418E+02 6.89581E+02 6.56349E+02 6.24684E+02
          5.94547E+02 5.65860E+02 5.38863E+02 5.13338E+02 4.89497E+02
          4.67125E+02 4.46248E+02 4.26900E+02 4.09066E+02 3.92483E+02
          3.77237E+02 3.70557E+02 3.65031E+02 3.61309E+02 3.55001E+02
          3.52682E+02 3.53224E+02 3.53592E+02 3.53385E+02 3.53261E+02
          3.53475E+02 3.53336E+02                                     4.965E+02
 3.00E+04 9.05495E+02 8.93387E+02 8.78479E+02 8.58821E+02 8.35985E+02
          7.87471E+02 7.38168E+02 6.92511E+02 6.50979E+02 6.13354E+02
          5.79081E+02 5.47789E+02 5.18707E+02 4.91031E+02 4.65239E+02
          4.41213E+02 4.18605E+02 3.96921E+02 3.75892E+02 3.56000E+02
          3.37057E+02 3.27626E+02 3.19018E+02 3.13390E+02 3.09234E+02
          3.08309E+02 3.07636E+02 3.07561E+02 3.07499E+02 3.07487E+02
          3.07484E+02 3.07487E+02                                     4.904E+02
 4.00E+04 9.41824E+02 9.23617E+02 9.02848E+02 8.77819E+02 8.50211E+02
          7.94108E+02 7.39197E+02 6.89310E+02 6.44489E+02 6.04138E+02
          5.67347E+02 5.33753E+02 5.02759E+02 4.73387E+02 4.45953E+02
          4.20358E+02 3.96128E+02 3.72851E+02 3.50245E+02 3.28467E+02
          3.07140E+02 2.96455E+02 2.86653E+02 2.80144E+02 2.75241E+02
          2.74218E+02 2.73414E+02 2.73319E+02 2.73249E+02 2.73236E+02
          2.73234E+02 2.73233E+02                                     4.843E+02
 5.00E+04 9.79646E+02 9.47492E+02 9.15010E+02 8.82154E+02 8.49994E+02
          7.90695E+02 7.36229E+02 6.86066E+02 6.39815E+02 5.97123E+02
          5.57638E+02 5.21387E+02 4.88415E+02 4.57807E+02 4.29348E+02
          4.02822E+02 3.77696E+02 3.53812E+02 3.30804E+02 3.07722E+02
          2.83950E+02 2.72257E+02 2.61673E+02 2.54533E+02 2.48652E+02
          2.47806E+02 2.46736E+02 2.46567E+02 2.46511E+02 2.46498E+02
          2.46512E+02 2.46495E+02                                     4.786E+02
 6.00E+04 9.97154E+02 9.61746E+02 9.26111E+02 8.90287E+02 8.55433E+02
          7.91640E+02 7.33547E+02 6.80529E+02 6.32052E+02 5.87527E+02
          5.46710E+02 5.09591E+02 4.75993E+02 4.44886E+02 4.15877E+02
          3.88841E+02 3.63117E+02 3.38494E+02 3.14573E+02 2.90387E+02
          2.65322E+02 2.52941E+02 2.41707E+02 2.34054E+02 2.27481E+02
          2.26392E+02 2.25193E+02 2.25017E+02 2.24947E+02 2.24934E+02
          2.24939E+02 2.24921E+02                                     4.741E+02
 8.00E+04 1.02204E+03 9.81242E+02 9.40442E+02 8.99896E+02 8.60816E+02
          7.90086E+02 7.26515E+02 6.69233E+02 6.17505E+02 5.70453E+02
          5.27784E+02 4.89684E+02 4.55378E+02 4.23735E+02 3.94062E+02
          3.66309E+02 3.39803E+02 3.14181E+02 2.89045E+02 2.63486E+02
          2.36934E+02 2.23732E+02 2.11583E+02 2.03024E+02 1.95211E+02
          1.93685E+02 1.92268E+02 1.92076E+02 1.91965E+02 1.91950E+02
          1.91943E+02 1.91928E+02                                     4.671E+02
 1.00E+05 1.03892E+03 9.93331E+02 9.48090E+02 9.03712E+02 8.61391E+02
          7.85527E+02 7.18245E+02 6.58241E+02 6.04524E+02 5.56198E+02
          5.12704E+02 4.74223E+02 4.39625E+02 4.07613E+02 3.77268E+02
          3.48499E+02 3.20981E+02 2.94357E+02 2.68448E+02 2.42509E+02
          2.15968E+02 2.02646E+02 1.89759E+02 1.80121E+02 1.71493E+02
          1.69507E+02 1.67928E+02 1.67739E+02 1.67585E+02 1.67567E+02
          1.67551E+02 1.67539E+02                                     4.617E+02
 1.50E+05 1.07498E+03 1.01679E+03 9.60335E+02 9.07134E+02 8.57907E+02
          7.71747E+02 6.98025E+02 6.33986E+02 5.77567E+02 5.27647E+02
          4.83378E+02 4.43993E+02 4.08417E+02 3.75399E+02 3.44031E+02
          3.14159E+02 2.86156E+02 2.59378E+02 2.33476E+02 2.07508E+02
          1.80632E+02 1.66854E+02 1.53055E+02 1.42192E+02 1.31960E+02
          1.29481E+02 1.27486E+02 1.27247E+02 1.27049E+02 1.27024E+02
          1.27004E+02 1.26999E+02                                     4.534E+02
 2.00E+05 1.10194E+03 1.03356E+03 9.68257E+02 9.08537E+02 8.54481E+02
          7.60996E+02 6.82467E+02 6.15607E+02 5.57728E+02 5.06936E+02
          4.62271E+02 4.22485E+02 3.86332E+02 3.52745E+02 3.20853E+02
          2.90430E+02 2.62071E+02 2.35542E+02 2.10095E+02 1.84678E+02
          1.58257E+02 1.44513E+02 1.30382E+02 1.18891E+02 1.07808E+02
          1.05039E+02 1.02804E+02 1.02536E+02 1.02312E+02 1.02281E+02
          1.02260E+02 1.02262E+02                                     4.500E+02
 3.00E+05 1.14772E+03 1.06252E+03 9.83235E+02 9.14292E+02 8.54159E+02
          7.51317E+02 6.66301E+02 5.94970E+02 5.34986E+02 4.83208E+02
          4.37597E+02 3.96922E+02 3.59866E+02 3.25476E+02 2.93008E+02
          2.62167E+02 2.33323E+02 2.06945E+02 1.82044E+02 1.57373E+02
          1.31918E+02 1.18613E+02 1.04678E+02 9.29725E+01 8.09884E+01
          7.79075E+01 7.54249E+01 7.51199E+01 7.48696E+01 7.48376E+01
          7.48106E+01 7.48140E+01                                     4.535E+02
 4.00E+05 1.18918E+03 1.08958E+03 9.98925E+02 9.23632E+02 8.60120E+02
          7.51904E+02 6.63635E+02 5.89218E+02 5.26948E+02 4.73727E+02
          4.26887E+02 3.85005E+02 3.46852E+02 3.11549E+02 2.78578E+02
          2.47645E+02 2.18733E+02 1.91983E+02 1.67046E+02 1.42556E+02
          1.17726E+02 1.04801E+02 9.11583E+01 7.94785E+01 6.69545E+01
          6.36920E+01 6.10816E+01 6.07359E+01 6.04805E+01 6.04497E+01
          6.04226E+01 6.04177E+01                                     4.649E+02
 5.00E+05 1.22781E+03 1.11680E+03 1.01723E+03 9.37185E+02 8.71109E+02
          7.57834E+02 6.66551E+02 5.89858E+02 5.25778E+02 4.71274E+02
          4.23392E+02 3.80484E+02 3.41421E+02 3.05380E+02 2.71839E+02
          2.40454E+02 2.11091E+02 1.83752E+02 1.58519E+02 1.34155E+02
          1.09598E+02 9.68294E+01 8.32421E+01 7.14540E+01 5.85460E+01
          5.51422E+01 5.24187E+01 5.20590E+01 5.17940E+01 5.17614E+01
          5.17337E+01 5.17217E+01                                     4.801E+02
 6.00E+05 1.26294E+03 1.14253E+03 1.03573E+03 9.52004E+02 8.84005E+02
          7.66312E+02 6.72314E+02 5.94035E+02 5.28596E+02 4.72909E+02
          4.24006E+02 3.80164E+02 3.40251E+02 3.03486E+02 2.69349E+02
          2.37463E+02 2.07616E+02 1.79685E+02 1.53839E+02 1.29426E+02
          1.04909E+02 9.21417E+01 7.84551E+01 6.64664E+01 5.31680E+01
          4.96341E+01 4.67983E+01 4.64254E+01 4.61493E+01 4.61155E+01
          4.60878E+01 4.60703E+01                                     4.971E+02
 8.00E+05 1.32062E+03 1.18950E+03 1.07424E+03 9.85619E+02 9.14010E+02
          7.86525E+02 6.85467E+02 6.04487E+02 5.38089E+02 4.81750E+02
          4.31801E+02 3.86663E+02 3.45495E+02 3.07597E+02 2.72285E+02
          2.39096E+02 2.07892E+02 1.78651E+02 1.51478E+02 1.26327E+02
          1.01354E+02 8.82952E+01 7.41348E+01 6.15360E+01 4.72841E+01
          4.34561E+01 4.03690E+01 3.99849E+01 3.96672E+01 3.96313E+01
          3.95933E+01 3.95822E+01                                     5.327E+02
 1.00E+06 1.36910E+03 1.22744E+03 1.10417E+03 1.01168E+03 9.38211E+02
          8.06192E+02 7.02412E+02 6.19915E+02 5.52319E+02 4.94703E+02
          4.43463E+02 3.97132E+02 3.54896E+02 3.16032E+02 2.79821E+02
          2.45750E+02 2.13592E+02 1.83171E+02 1.54460E+02 1.27701E+02
          1.01865E+02 8.83005E+01 7.34523E+01 6.00732E+01 4.46686E+01
          4.04926E+01 3.71237E+01 3.67022E+01 3.63561E+01 3.63151E+01
          3.62756E+01 3.62690E+01                                     5.677E+02
 1.50E+06 1.45923E+03 1.29707E+03 1.15871E+03 1.06000E+03 9.85021E+02
          8.50205E+02 7.47337E+02 6.63026E+02 5.92265E+02 5.31035E+02
          4.76704E+02 4.27851E+02 3.83448E+02 3.42636E+02 3.04697E+02
          2.69011E+02 2.35050E+02 2.02177E+02 1.70075E+02 1.39127E+02
          1.09695E+02 9.43947E+01 7.72695E+01 6.15090E+01 4.30058E+01
          3.79420E+01 3.38390E+01 3.33061E+01 3.29095E+01 3.28591E+01
          3.28235E+01 3.28105E+01                                     6.468E+02
 2.00E+06 1.51432E+03 1.34600E+03 1.20324E+03 1.10293E+03 1.02733E+03
          8.89166E+02 7.84490E+02 6.98559E+02 6.26791E+02 5.64690E+02
          5.09232E+02 4.59012E+02 4.13164E+02 3.70880E+02 3.31338E+02
          2.93856E+02 2.57949E+02 2.23024E+02 1.88624E+02 1.54604E+02
          1.20801E+02 1.03393E+02 8.36127E+01 6.52035E+01 4.35906E+01
          3.76751E+01 3.28616E+01 3.22493E+01 3.17580E+01 3.16980E+01
          3.16414E+01 3.16270E+01                                     7.143E+02
 3.00E+06 1.58461E+03 1.40580E+03 1.25646E+03 1.15603E+03 1.08374E+03
          9.50832E+02 8.47812E+02 7.61356E+02 6.87728E+02 6.23197E+02
          5.65222E+02 5.12525E+02 4.64286E+02 4.19715E+02 3.77990E+02
          3.38401E+02 3.00380E+02 2.63186E+02 2.25871E+02 1.87065E+02
          1.45098E+02 1.22285E+02 9.71796E+01 7.38715E+01 4.66649E+01
          3.89205E+01 3.25039E+01 3.16646E+01 3.09810E+01 3.08910E+01
          3.08337E+01 3.07342E+01                                     8.213E+02
 4.00E+06 1.61564E+03 1.43526E+03 1.28685E+03 1.19135E+03 1.12560E+03
          1.00134E+03 9.00069E+02 8.12252E+02 7.35588E+02 6.67823E+02
          6.07535E+02 5.53464E+02 5.04492E+02 4.59496E+02 4.17282E+02
          3.76877E+02 3.37675E+02 2.98881E+02 2.59229E+02 2.16486E+02
          1.67866E+02 1.40395E+02 1.10384E+02 8.31626E+01 5.03875E+01
          4.06790E+01 3.27433E+01 3.16532E+01 3.06647E+01 3.05329E+01
          3.04775E+01 3.03044E+01                                     9.030E+02
 5.00E+06 1.64328E+03 1.45778E+03 1.30723E+03 1.21437E+03 1.15328E+03
          1.03477E+03 9.35975E+02 8.49297E+02 7.72917E+02 7.04872E+02
          6.43959E+02 5.89070E+02 5.39208E+02 4.93342E+02 4.50308E+02
          4.09125E+02 3.69102E+02 3.29284E+02 2.88078E+02 2.42533E+02
          1.88963E+02 1.57838E+02 1.22923E+02 9.18916E+01 5.41508E+01
          4.27958E+01 3.31923E+01 3.17773E+01 3.04552E+01 3.02887E+01
          3.02290E+01 3.00145E+01                                     9.673E+02
 6.00E+06 1.66317E+03 1.47279E+03 1.32026E+03 1.23007E+03 1.17335E+03
          1.05932E+03 9.63147E+02 8.78042E+02 8.02545E+02 7.34861E+02
          6.73936E+02 6.18764E+02 5.68446E+02 5.22029E+02 4.78435E+02
          4.36708E+02 3.96103E+02 3.55551E+02 3.13229E+02 2.65672E+02
          2.08340E+02 1.74205E+02 1.35088E+02 1.00107E+02 5.78512E+01
          4.49960E+01 3.37057E+01 3.19475E+01 3.02809E+01 3.00782E+01
          3.00155E+01 2.97732E+01                                     1.019E+03
 8.00E+06 1.68926E+03 1.49172E+03 1.33679E+03 1.25175E+03 1.20257E+03
          1.09531E+03 1.00375E+03 9.21654E+02 8.48101E+02 7.81555E+02
          7.21191E+02 6.66157E+02 6.15680E+02 5.68919E+02 5.24899E+02
          4.82701E+02 4.41506E+02 4.00086E+02 3.56278E+02 3.05845E+02
          2.42852E+02 2.04030E+02 1.58060E+02 1.15652E+02 6.51394E+01
          4.94124E+01 3.48449E+01 3.24174E+01 3.00567E+01 2.97736E+01
          2.97107E+01 2.94563E+01                                     1.101E+03
 1.00E+07 1.70519E+03 1.50308E+03 1.34690E+03 1.26584E+03 1.22226E+03
          1.12015E+03 1.03234E+03 9.52984E+02 8.81403E+02 8.16259E+02
          7.56860E+02 7.02459E+02 6.52369E+02 6.05822E+02 5.61908E+02
          5.19725E+02 4.78417E+02 4.36657E+02 3.92050E+02 3.39811E+02
          2.72903E+02 2.30625E+02 1.79319E+02 1.30277E+02 7.21132E+01
          5.37107E+01 3.60282E+01 3.29646E+01 2.99280E+01 2.95615E+01
          2.95038E+01 2.92358E+01                                     1.163E+03
 1.50E+07 1.72448E+03 1.51731E+03 1.36033E+03 1.28523E+03 1.24984E+03
          1.15693E+03 1.07589E+03 1.00195E+03 9.34675E+02 8.73024E+02
          8.16464E+02 7.64390E+02 7.16225E+02 6.71280E+02 6.28692E+02
          5.87574E+02 5.47030E+02 5.05603E+02 4.60583E+02 4.06363E+02
          3.33970E+02 2.86233E+02 2.25742E+02 1.64546E+02 8.80987E+01
          6.36744E+01 3.89232E+01 3.44260E+01 2.98156E+01 2.92266E+01
          2.91513E+01 2.88954E+01                                     1.269E+03
 2.00E+07 1.73322E+03 1.52360E+03 1.36639E+03 1.29460E+03 1.26381E+03
          1.17683E+03 1.10026E+03 1.03020E+03 9.66278E+02 9.07597E+02
          8.53700E+02 8.04042E+02 7.58082E+02 7.15151E+02 6.74367E+02
          6.34817E+02 5.95604E+02 5.55233E+02 5.10846E+02 4.56420E+02
          3.81730E+02 3.31021E+02 2.64802E+02 1.94964E+02 1.02444E+02
          7.27354E+01 4.16683E+01 3.59059E+01 2.98845E+01 2.90746E+01
          2.89445E+01 2.87082E+01                                     1.338E+03
 3.00E+07 1.74196E+03 1.52887E+03 1.37098E+03 1.30298E+03 1.27764E+03
          1.19760E+03 1.12659E+03 1.06162E+03 1.00238E+03 9.48148E+02
          8.98491E+02 8.52922E+02 8.10912E+02 7.71770E+02 7.34523E+02
          6.98191E+02 6.61908E+02 6.24184E+02 5.82088E+02 5.29246E+02
          4.53964E+02 4.00723E+02 3.28181E+02 2.46960E+02 1.27669E+02
          8.89230E+01 4.67382E+01 3.87750E+01 3.02983E+01 2.90689E+01
          2.87208E+01 2.84984E+01                                     1.428E+03
 4.00E+07 1.74385E+03 1.52944E+03 1.37161E+03 1.30589E+03 1.28362E+03
          1.20756E+03 1.13988E+03 1.07810E+03 1.02196E+03 9.70797E+02
          9.24213E+02 8.81739E+02 8.42846E+02 8.06813E+02 7.72595E+02
          7.39158E+02 7.05674E+02 6.70691E+02 6.31290E+02 5.80969E+02
          5.07222E+02 4.53477E+02 3.77980E+02 2.89822E+02 1.50801E+02
          1.03238E+02 5.13414E+01 4.14663E+01 3.08655E+01 2.92508E+01
          2.85892E+01 2.83817E+01                                     1.484E+03
 5.00E+07 1.74418E+03 1.53002E+03 1.37297E+03 1.30885E+03 1.28837E+03
          1.21476E+03 1.14908E+03 1.08926E+03 1.03500E+03 9.85732E+02
          9.41111E+02 9.00683E+02 8.63979E+02 8.30312E+02 7.98671E+02
          7.68051E+02 7.37630E+02 7.05912E+02 6.69761E+02 6.21978E+02
          5.49227E+02 4.95313E+02 4.18924E+02 3.27024E+02 1.72601E+02
          1.16103E+02 5.56511E+01 4.40417E+01 3.15135E+01 2.95556E+01
          2.85051E+01 2.83221E+01                                     1.525E+03
 6.00E+07 1.74015E+03 1.52766E+03 1.37219E+03 1.30951E+03 1.29031E+03
          1.21869E+03 1.15469E+03 1.09648E+03 1.04376E+03 9.96056E+02
          9.53022E+02 9.14274E+02 8.79357E+02 8.47621E+02 8.18089E+02
          7.89767E+02 7.61805E+02 7.32626E+02 6.98992E+02 6.53562E+02
          5.82747E+02 5.29538E+02 4.53292E+02 3.59118E+02 1.92740E+02
          1.28224E+02 5.96381E+01 4.64800E+01 3.21694E+01 2.98411E+01
          2.84706E+01 2.82636E+01                                     1.555E+03
 8.00E+07 1.73327E+03 1.52460E+03 1.37227E+03 1.31158E+03 1.29372E+03
          1.22465E+03 1.16280E+03 1.10673E+03 1.05614E+03 1.01061E+03
          9.69845E+02 9.33505E+02 9.01178E+02 8.72252E+02 8.45774E+02
          8.20799E+02 7.96595E+02 7.71717E+02 7.42912E+02 7.02282E+02
          6.35535E+02 5.84021E+02 5.08940E+02 4.12586E+02 2.29017E+02
          1.51540E+02 6.70608E+01 5.10407E+01 3.35135E+01 3.05235E+01
          2.84775E+01 2.82051E+01                                     1.600E+03
 1.00E+08 1.72759E+03 1.52243E+03 1.37284E+03 1.31361E+03 1.29654E+03
          1.22916E+03 1.16872E+03 1.11400E+03 1.06475E+03 1.02056E+03
          9.81218E+02 9.46402E+02 9.15746E+02 8.88695E+02 8.64369E+02
          8.41880E+02 8.20576E+02 7.99090E+02 7.74211E+02 7.37869E+02
          6.75457E+02 6.26025E+02 5.52623E+02 4.55641E+02 2.60854E+02
          1.73527E+02 7.39067E+01 5.52774E+01 3.48413E+01 3.12522E+01
          2.85129E+01 2.81687E+01                                     1.632E+03
 1.50E+08 1.71327E+03 1.51642E+03 1.37309E+03 1.31677E+03 1.30089E+03
          1.23643E+03 1.17819E+03 1.12536E+03 1.07779E+03 1.03524E+03
          9.97621E+02 9.64748E+02 9.36377E+02 9.12156E+02 8.91467E+02
          8.73587E+02 8.57705E+02 8.41928E+02 8.22973E+02 7.94487E+02
          7.43284E+02 6.99932E+02 6.30918E+02 5.35011E+02 3.27142E+02
          2.21761E+02 8.91888E+01 6.48870E+01 3.79782E+01 3.30364E+01
          2.86926E+01 2.81297E+01                                     1.682E+03
 2.00E+08 1.69551E+03 1.50960E+03 1.37389E+03 1.31985E+03 1.30375E+03
          1.24068E+03 1.18351E+03 1.13159E+03 1.08485E+03 1.04320E+03
          1.00655E+03 9.74796E+02 9.47746E+02 9.25119E+02 9.06414E+02
          8.91041E+02 8.78287E+02 8.66374E+02 8.52257E+02 8.30181E+02
          7.87459E+02 7.48929E+02 6.84489E+02 5.91563E+02 3.79179E+02
          2.62630E+02 1.02873E+02 7.35236E+01 4.08597E+01 3.47709E+01
          2.89517E+01 2.80794E+01                                     1.713E+03
 3.00E+08 1.65179E+03 1.49255E+03 1.37492E+03 1.32498E+03 1.30658E+03
          1.24485E+03 1.18877E+03 1.13791E+03 1.09222E+03 1.05164E+03
          1.01614E+03 9.85665E+02 9.60102E+02 9.39262E+02 9.22740E+02
          9.10094E+02 9.00840E+02 8.93552E+02 8.85710E+02 8.72413E+02
          8.42174E+02 8.11524E+02 7.55609E+02 6.69522E+02 4.57411E+02
          3.28895E+02 1.27229E+02 8.90382E+01 4.60782E+01 3.79882E+01
          2.96128E+01 2.80735E+01                                     1.748E+03
 4.00E+08 1.61426E+03 1.47758E+03 1.37511E+03 1.32829E+03 1.30756E+03
          1.24636E+03 1.19075E+03 1.14044E+03 1.09539E+03 1.05554E+03
          1.02086E+03 9.91283E+02 9.66617E+02 9.46696E+02 9.31276E+02
          9.20065E+02 9.12734E+02 9.08031E+02 9.03897E+02 8.96419E+02
          8.74876E+02 8.49745E+02 8.01173E+02 7.22860E+02 5.15686E+02
          3.80082E+02 1.48589E+02 1.02992E+02 5.07824E+01 4.09030E+01
          3.03370E+01 2.80354E+01                                     1.767E+03
 5.00E+08 1.58708E+03 1.46664E+03 1.37506E+03 1.33047E+03 1.30803E+03
          1.24730E+03 1.19213E+03 1.14228E+03 1.09764E+03 1.05817E+03
          1.02385E+03 9.94628E+02 9.70462E+02 9.51229E+02 9.36647E+02
          9.26454E+02 9.20386E+02 9.17360E+02 9.15577E+02 9.11684E+02
          8.96610E+02 8.76666E+02 8.34172E+02 7.61091E+02 5.59995E+02
          4.23335E+02 1.68054E+02 1.15708E+02 5.50896E+01 4.35971E+01
          3.10495E+01 2.80585E+01                                     1.780E+03
 6.00E+08 1.56811E+03 1.45908E+03 1.37517E+03 1.33215E+03 1.30850E+03
          1.24792E+03 1.19286E+03 1.14322E+03 1.09887E+03 1.05975E+03
          1.02580E+03 9.96987E+02 9.73255E+02 9.54493E+02 9.40422E+02
          9.30819E+02 9.25517E+02 9.23611E+02 9.23578E+02 9.22511E+02
          9.12176E+02 8.95883E+02 8.58689E+02 7.91194E+02 5.96097E+02
          4.59299E+02 1.87531E+02 1.27538E+02 5.91579E+01 4.61102E+01
          3.17768E+01 2.80513E+01                                     1.789E+03
 8.00E+08 1.54421E+03 1.44937E+03 1.37499E+03 1.33394E+03 1.30885E+03
          1.24878E+03 1.19423E+03 1.14499E+03 1.10098E+03 1.06216E+03
          1.02852E+03 1.00006E+03 9.76758E+02 9.58515E+02 9.45140E+02
          9.36471E+02 9.32400E+02 9.32082E+02 9.34228E+02 9.36653E+02
          9.32839E+02 9.22076E+02 8.93028E+02 8.35093E+02 6.52970E+02
          5.16457E+02 2.25602E+02 1.49271E+02 6.66276E+01 5.07927E+01
          3.32315E+01 2.80416E+01                                     1.802E+03
 1.00E+09 1.52873E+03 1.44318E+03 1.37506E+03 1.33535E+03 1.30932E+03
          1.24938E+03 1.19489E+03 1.14579E+03 1.10198E+03 1.06341E+03
          1.03007E+03 1.00195E+03 9.79017E+02 9.61160E+02 9.48188E+02
          9.39973E+02 9.36495E+02 9.37104E+02 9.40756E+02 9.45560E+02
          9.45867E+02 9.38779E+02 9.16164E+02 8.66164E+02 6.94594E+02
          5.61674E+02 2.58625E+02 1.68661E+02 7.35431E+01 5.50420E+01
          3.46474E+01 2.80427E+01                                     1.810E+03
 1.50E+09 1.50527E+03 1.43357E+03 1.37476E+03 1.33697E+03 1.30952E+03
          1.24997E+03 1.19581E+03 1.14697E+03 1.10342E+03 1.06514E+03
          1.03217E+03 1.00445E+03 9.81924E+02 9.64489E+02 9.52057E+02
          9.44573E+02 9.42083E+02 9.44015E+02 9.49581E+02 9.57687E+02
          9.64431E+02 9.63073E+02 9.49771E+02 9.13006E+02 7.67788E+02
          6.43525E+02 3.25860E+02 2.13506E+02 8.90108E+01 6.47233E+01
          3.79580E+01 2.79922E+01                                     1.823E+03
 2.00E+09 1.49267E+03 1.42873E+03 1.37510E+03 1.33834E+03 1.31003E+03
          1.25059E+03 1.19655E+03 1.14786E+03 1.10444E+03 1.06632E+03
          1.03352E+03 1.00597E+03 9.83654E+02 9.66469E+02 9.54316E+02
          9.47173E+02 9.45142E+02 9.47837E+02 9.54654E+02 9.64578E+02
          9.74466E+02 9.76178E+02 9.68628E+02 9.40610E+02 8.14623E+02
          6.99709E+02 3.79029E+02 2.56268E+02 1.02789E+02 7.34782E+01
          4.09198E+01 2.80309E+01                                     1.830E+03
 3.00E+09 1.48038E+03 1.42414E+03 1.37553E+03 1.33948E+03 1.30997E+03
          1.25037E+03 1.19641E+03 1.14793E+03 1.10483E+03 1.06703E+03
          1.03449E+03 1.00719E+03 9.85120E+02 9.68168E+02 9.56067E+02
          9.48787E+02 9.46862E+02 9.50832E+02 9.60616E+02 9.73445E+02
          9.84821E+02 9.88396E+02 9.87392E+02 9.72299E+02 8.73961E+02
          7.70266E+02 4.59473E+02 3.25681E+02 1.27085E+02 8.88019E+01
          4.61105E+01 2.79580E+01                                     1.837E+03
 4.00E+09 1.47146E+03 1.42029E+03 1.37520E+03 1.34017E+03 1.31047E+03
          1.25124E+03 1.19739E+03 1.14889E+03 1.10571E+03 1.06783E+03
          1.03524E+03 1.00795E+03 9.85957E+02 9.69221E+02 9.57605E+02
          9.51080E+02 9.49851E+02 9.53699E+02 9.62271E+02 9.75016E+02
          9.89692E+02 9.95978E+02 9.98597E+02 9.89280E+02 9.09905E+02
          8.18198E+02 5.18893E+02 3.79444E+02 1.48485E+02 1.02716E+02
          5.08105E+01 2.78356E+01                                     1.842E+03
 5.00E+09 1.46664E+03 1.41830E+03 1.37514E+03 1.34051E+03 1.31054E+03
          1.25137E+03 1.19757E+03 1.14912E+03 1.10598E+03 1.06814E+03
          1.03559E+03 1.00836E+03 9.86436E+02 9.69803E+02 9.58327E+02
          9.51987E+02 9.50978E+02 9.55001E+02 9.63725E+02 9.76910E+02
